time(s),ADRC y best
0,0
0.005,0
0.01,0
0.015,0.00199947
0.02,0.00820436
0.025,0.0183299
0.03,0.0315108
0.035,0.0470889
0.04,0.0644855
0.045,0.0832025
0.05,0.102813
0.055,0.122953
0.06,0.143307
0.065,0.163614
0.07,0.183689
0.075,0.203267
0.08,0.221982
0.085,0.239559
0.09,0.255862
0.095,0.270849
0.1,0.28453
0.105,0.296949
0.11,0.308165
0.115,0.318249
0.12,0.327281
0.125,0.335344
0.13,0.342521
0.135,0.348895
0.14,0.354547
0.145,0.359554
0.15,0.363989
0.155,0.367921
0.16,0.371412
0.165,0.374523
0.17,0.377304
0.175,0.379806
0.18,0.38207
0.185,0.384136
0.19,0.386037
0.195,0.387803
0.2,0.389462
0.205,0.391035
0.21,0.392542
0.215,0.394001
0.22,0.395425
0.225,0.396827
0.23,0.398215
0.235,0.399599
0.24,0.400986
0.245,0.40238
0.25,0.403785
0.255,0.405205
0.26,0.406643
0.265,0.4081
0.27,0.409576
0.275,0.411074
0.28,0.412593
0.285,0.414133
0.29,0.415694
0.295,0.417275
0.3,0.418877
0.305,0.420498
0.31,0.422138
0.315,0.423796
0.32,0.425472
0.325,0.427164
0.33,0.428873
0.335,0.430596
0.34,0.432335
0.345,0.434087
0.35,0.435854
0.355,0.437633
0.36,0.439425
0.365,0.441228
0.37,0.443044
0.375,0.444871
0.38,0.446709
0.385,0.448558
0.39,0.450417
0.395,0.452286
0.4,0.454165
0.405,0.456053
0.41,0.457951
0.415,0.459858
0.42,0.461775
0.425,0.4637
0.43,0.465634
0.435,0.467577
0.44,0.469528
0.445,0.471487
0.45,0.473455
0.455,0.475431
0.46,0.477415
0.465,0.479406
0.47,0.481406
0.475,0.483413
0.48,0.485428
0.485,0.48745
0.49,0.48948
0.495,0.491517
0.5,0.493561
0.505,0.495613
0.51,0.497671
0.515,0.499737
0.52,0.501809
0.525,0.503888
0.53,0.505973
0.535,0.508065
0.54,0.510164
0.545,0.512269
0.55,0.51438
0.555,0.516498
0.56,0.518621
0.565,0.520751
0.57,0.522886
0.575,0.525027
0.58,0.527175
0.585,0.529327
0.59,0.531485
0.595,0.533649
0.6,0.535818
0.605,0.537993
0.61,0.540172
0.615,0.542357
0.62,0.544547
0.625,0.546741
0.63,0.548941
0.635,0.551145
0.64,0.553354
0.645,0.555568
0.65,0.557786
0.655,0.560009
0.66,0.562235
0.665,0.564467
0.67,0.566702
0.675,0.568941
0.68,0.571185
0.685,0.573432
0.69,0.575683
0.695,0.577938
0.7,0.580197
0.705,0.582459
0.71,0.584725
0.715,0.586994
0.72,0.589266
0.725,0.591542
0.73,0.593821
0.735,0.596103
0.74,0.598388
0.745,0.600676
0.75,0.602967
0.755,0.605261
0.76,0.607557
0.765,0.609856
0.77,0.612158
0.775,0.614462
0.78,0.616769
0.785,0.619078
0.79,0.621389
0.795,0.623702
0.8,0.626018
0.805,0.628335
0.81,0.630655
0.815,0.632976
0.82,0.635299
0.825,0.637624
0.83,0.639951
0.835,0.642279
0.84,0.644609
0.845,0.64694
0.85,0.649272
0.855,0.651606
0.86,0.653941
0.865,0.656277
0.87,0.658615
0.875,0.660953
0.88,0.663292
0.885,0.665632
0.89,0.667973
0.895,0.670315
0.9,0.672657
0.905,0.675
0.91,0.677343
0.915,0.679687
0.92,0.682031
0.925,0.684376
0.93,0.68672
0.935,0.689065
0.94,0.69141
0.945,0.693755
0.95,0.6961
0.955,0.698445
0.96,0.70079
0.965,0.703134
0.97,0.705479
0.975,0.707822
0.98,0.710166
0.985,0.712509
0.99,0.714851
0.995,0.717193
1,0.719534
1.005,0.721874
1.01,0.724213
1.015,0.726551
1.02,0.728889
1.025,0.731225
1.03,0.73356
1.035,0.735895
1.04,0.738227
1.045,0.740559
1.05,0.742889
1.055,0.745218
1.06,0.747545
1.065,0.749871
1.07,0.752195
1.075,0.754517
1.08,0.756838
1.085,0.759156
1.09,0.761473
1.095,0.763788
1.1,0.766101
1.105,0.768412
1.11,0.77072
1.115,0.773027
1.12,0.775331
1.125,0.777633
1.13,0.779932
1.135,0.782229
1.14,0.784523
1.145,0.786815
1.15,0.789104
1.155,0.79139
1.16,0.793674
1.165,0.795954
1.17,0.798232
1.175,0.800507
1.18,0.802778
1.185,0.805047
1.19,0.807312
1.195,0.809574
1.2,0.811833
1.205,0.814088
1.21,0.81634
1.215,0.818588
1.22,0.820833
1.225,0.823074
1.23,0.825312
1.235,0.827545
1.24,0.829775
1.245,0.832001
1.25,0.834223
1.255,0.83644
1.26,0.838654
1.265,0.840863
1.27,0.843069
1.275,0.845269
1.28,0.847466
1.285,0.849658
1.29,0.851845
1.295,0.854028
1.3,0.856206
1.305,0.85838
1.31,0.860548
1.315,0.862712
1.32,0.864871
1.325,0.867024
1.33,0.869173
1.335,0.871317
1.34,0.873455
1.345,0.875588
1.35,0.877715
1.355,0.879837
1.36,0.881954
1.365,0.884065
1.37,0.88617
1.375,0.888269
1.38,0.890363
1.385,0.89245
1.39,0.894532
1.395,0.896607
1.4,0.898677
1.405,0.90074
1.41,0.902797
1.415,0.904847
1.42,0.906889
1.425,0.908922
1.43,0.910945
1.435,0.912959
1.44,0.914962
1.445,0.916955
1.45,0.918938
1.455,0.920911
1.46,0.922874
1.465,0.924827
1.47,0.92677
1.475,0.928703
1.48,0.930626
1.485,0.932538
1.49,0.934441
1.495,0.936332
1.5,0.938213
1.505,0.940084
1.51,0.941943
1.515,0.943792
1.52,0.945629
1.525,0.947456
1.53,0.949271
1.535,0.951075
1.54,0.952867
1.545,0.954648
1.55,0.956416
1.555,0.958174
1.56,0.959919
1.565,0.961652
1.57,0.963373
1.575,0.965082
1.58,0.966779
1.585,0.968463
1.59,0.970135
1.595,0.971794
1.6,0.973441
1.605,0.975075
1.61,0.976696
1.615,0.978305
1.62,0.9799
1.625,0.981482
1.63,0.983052
1.635,0.984608
1.64,0.986151
1.645,0.98768
1.65,0.989196
1.655,0.990698
1.66,0.992187
1.665,0.993662
1.67,0.995124
1.675,0.996571
1.68,0.998005
1.685,0.999425
1.69,1.00083
1.695,1.00222
1.7,1.0036
1.705,1.00496
1.71,1.00631
1.715,1.00764
1.72,1.00896
1.725,1.01026
1.73,1.01155
1.735,1.01283
1.74,1.01408
1.745,1.01532
1.75,1.01654
1.755,1.01774
1.76,1.01893
1.765,1.0201
1.77,1.02125
1.775,1.02238
1.78,1.02349
1.785,1.02459
1.79,1.02566
1.795,1.02672
1.8,1.02777
1.805,1.02879
1.81,1.0298
1.815,1.03079
1.82,1.03176
1.825,1.03272
1.83,1.03366
1.835,1.03458
1.84,1.03548
1.845,1.03637
1.85,1.03724
1.855,1.03809
1.86,1.03893
1.865,1.03975
1.87,1.04055
1.875,1.04134
1.88,1.0421
1.885,1.04286
1.89,1.04359
1.895,1.04431
1.9,1.04501
1.905,1.0457
1.91,1.04636
1.915,1.04702
1.92,1.04765
1.925,1.04827
1.93,1.04888
1.935,1.04947
1.94,1.05004
1.945,1.0506
1.95,1.05114
1.955,1.05166
1.96,1.05217
1.965,1.05267
1.97,1.05315
1.975,1.05361
1.98,1.05407
1.985,1.05451
1.99,1.05493
1.995,1.05535
2,1.05575
2.005,1.05614
2.01,1.05651
2.015,1.05688
2.02,1.05723
2.025,1.05757
2.03,1.0579
2.035,1.05821
2.04,1.05852
2.045,1.05881
2.05,1.05909
2.055,1.05936
2.06,1.05961
2.065,1.05986
2.07,1.06009
2.075,1.06032
2.08,1.06053
2.085,1.06073
2.09,1.06092
2.095,1.0611
2.1,1.06128
2.105,1.06144
2.11,1.06159
2.115,1.06173
2.12,1.06186
2.125,1.06198
2.13,1.06209
2.135,1.06219
2.14,1.06228
2.145,1.06236
2.15,1.06244
2.155,1.0625
2.16,1.06256
2.165,1.0626
2.17,1.06264
2.175,1.06267
2.18,1.06269
2.185,1.0627
2.19,1.0627
2.195,1.0627
2.2,1.06268
2.205,1.06266
2.21,1.06263
2.215,1.0626
2.22,1.06255
2.225,1.0625
2.23,1.06244
2.235,1.06237
2.24,1.06229
2.245,1.06221
2.25,1.06212
2.255,1.06202
2.26,1.06192
2.265,1.0618
2.27,1.06169
2.275,1.06156
2.28,1.06143
2.285,1.06129
2.29,1.06114
2.295,1.06099
2.3,1.06083
2.305,1.06067
2.31,1.0605
2.315,1.06032
2.32,1.06013
2.325,1.05995
2.33,1.05975
2.335,1.05955
2.34,1.05934
2.345,1.05913
2.35,1.05891
2.355,1.05869
2.36,1.05846
2.365,1.05823
2.37,1.05799
2.375,1.05774
2.38,1.05749
2.385,1.05724
2.39,1.05698
2.395,1.05671
2.4,1.05645
2.405,1.05617
2.41,1.05589
2.415,1.05561
2.42,1.05532
2.425,1.05503
2.43,1.05474
2.435,1.05444
2.44,1.05413
2.445,1.05382
2.45,1.05351
2.455,1.0532
2.46,1.05288
2.465,1.05255
2.47,1.05223
2.475,1.05189
2.48,1.05156
2.485,1.05122
2.49,1.05088
2.495,1.05054
2.5,1.05019
2.505,1.04984
2.51,1.04948
2.515,1.04913
2.52,1.04877
2.525,1.0484
2.53,1.04804
2.535,1.04767
2.54,1.0473
2.545,1.04693
2.55,1.04655
2.555,1.04617
2.56,1.04579
2.565,1.04541
2.57,1.04502
2.575,1.04464
2.58,1.04425
2.585,1.04385
2.59,1.04346
2.595,1.04306
2.6,1.04267
2.605,1.04227
2.61,1.04187
2.615,1.04146
2.62,1.04106
2.625,1.04065
2.63,1.04025
2.635,1.03984
2.64,1.03943
2.645,1.03902
2.65,1.0386
2.655,1.03819
2.66,1.03778
2.665,1.03736
2.67,1.03694
2.675,1.03653
2.68,1.03611
2.685,1.03569
2.69,1.03527
2.695,1.03485
2.7,1.03443
2.705,1.034
2.71,1.03358
2.715,1.03316
2.72,1.03273
2.725,1.03231
2.73,1.03189
2.735,1.03146
2.74,1.03104
2.745,1.03061
2.75,1.03019
2.755,1.02976
2.76,1.02934
2.765,1.02892
2.77,1.02849
2.775,1.02807
2.78,1.02764
2.785,1.02722
2.79,1.0268
2.795,1.02637
2.8,1.02595
2.805,1.02553
2.81,1.02511
2.815,1.02469
2.82,1.02427
2.825,1.02385
2.83,1.02343
2.835,1.02301
2.84,1.02259
2.845,1.02218
2.85,1.02176
2.855,1.02135
2.86,1.02093
2.865,1.02052
2.87,1.02011
2.875,1.0197
2.88,1.0193
2.885,1.01889
2.89,1.01849
2.895,1.01808
2.9,1.01768
2.905,1.01729
2.91,1.01689
2.915,1.0165
2.92,1.01611
2.925,1.01572
2.93,1.01533
2.935,1.01495
2.94,1.01457
2.945,1.01419
2.95,1.01381
2.955,1.01344
2.96,1.01307
2.965,1.0127
2.97,1.01233
2.975,1.01197
2.98,1.01161
2.985,1.01125
2.99,1.01089
2.995,1.01054
3,1.01019
3.005,1.00984
3.01,1.0095
3.015,1.00915
3.02,1.00881
3.025,1.00848
3.03,1.00814
3.035,1.00781
3.04,1.00749
3.045,1.00716
3.05,1.00684
3.055,1.00652
3.06,1.00621
3.065,1.00589
3.07,1.00558
3.075,1.00528
3.08,1.00497
3.085,1.00467
3.09,1.00438
3.095,1.00408
3.1,1.00379
3.105,1.0035
3.11,1.00322
3.115,1.00294
3.12,1.00266
3.125,1.00239
3.13,1.00211
3.135,1.00184
3.14,1.00158
3.145,1.00132
3.15,1.00106
3.155,1.0008
3.16,1.00055
3.165,1.0003
3.17,1.00005
3.175,0.999808
3.18,0.999568
3.185,0.99933
3.19,0.999097
3.195,0.998866
3.2,0.998638
3.205,0.998414
3.21,0.998193
3.215,0.997975
3.22,0.99776
3.225,0.997548
3.23,0.997339
3.235,0.997134
3.24,0.996931
3.245,0.996732
3.25,0.996536
3.255,0.996343
3.26,0.996153
3.265,0.995966
3.27,0.995782
3.275,0.995602
3.28,0.995424
3.285,0.99525
3.29,0.995078
3.295,0.99491
3.3,0.994744
3.305,0.994582
3.31,0.994422
3.315,0.994266
3.32,0.994112
3.325,0.993962
3.33,0.993814
3.335,0.99367
3.34,0.993528
3.345,0.993389
3.35,0.993253
3.355,0.99312
3.36,0.99299
3.365,0.992863
3.37,0.992738
3.375,0.992616
3.38,0.992498
3.385,0.992381
3.39,0.992268
3.395,0.992158
3.4,0.99205
3.405,0.991945
3.41,0.991842
3.415,0.991742
3.42,0.991645
3.425,0.991551
3.43,0.991459
3.435,0.99137
3.44,0.991283
3.445,0.991199
3.45,0.991117
3.455,0.991038
3.46,0.990962
3.465,0.990888
3.47,0.990816
3.475,0.990747
3.48,0.990681
3.485,0.990616
3.49,0.990554
3.495,0.990495
3.5,0.990438
3.505,0.990383
3.51,0.99033
3.515,0.99028
3.52,0.990232
3.525,0.990186
3.53,0.990143
3.535,0.990102
3.54,0.990063
3.545,0.990026
3.55,0.989991
3.555,0.989958
3.56,0.989927
3.565,0.989899
3.57,0.989872
3.575,0.989848
3.58,0.989825
3.585,0.989805
3.59,0.989786
3.595,0.98977
3.6,0.989755
3.605,0.989742
3.61,0.989731
3.615,0.989722
3.62,0.989715
3.625,0.989709
3.63,0.989706
3.635,0.989704
3.64,0.989703
3.645,0.989705
3.65,0.989708
3.655,0.989713
3.66,0.98972
3.665,0.989728
3.67,0.989737
3.675,0.989749
3.68,0.989762
3.685,0.989776
3.69,0.989792
3.695,0.989809
3.7,0.989828
3.705,0.989849
3.71,0.98987
3.715,0.989893
3.72,0.989918
3.725,0.989944
3.73,0.989971
3.735,0.99
3.74,0.990029
3.745,0.990061
3.75,0.990093
3.755,0.990126
3.76,0.990161
3.765,0.990197
3.77,0.990234
3.775,0.990273
3.78,0.990312
3.785,0.990352
3.79,0.990394
3.795,0.990437
3.8,0.99048
3.805,0.990525
3.81,0.990571
3.815,0.990617
3.82,0.990665
3.825,0.990714
3.83,0.990763
3.835,0.990813
3.84,0.990865
3.845,0.990917
3.85,0.99097
3.855,0.991023
3.86,0.991078
3.865,0.991133
3.87,0.991189
3.875,0.991246
3.88,0.991304
3.885,0.991362
3.89,0.991421
3.895,0.99148
3.9,0.991541
3.905,0.991601
3.91,0.991663
3.915,0.991725
3.92,0.991787
3.925,0.991851
3.93,0.991914
3.935,0.991979
3.94,0.992043
3.945,0.992109
3.95,0.992174
3.955,0.99224
3.96,0.992307
3.965,0.992374
3.97,0.992441
3.975,0.992509
3.98,0.992577
3.985,0.992646
3.99,0.992715
3.995,0.992784
4,0.992853
4.005,0.992923
4.01,0.992993
4.015,0.993063
4.02,0.993134
4.025,0.993204
4.03,0.993275
4.035,0.993347
4.04,0.993418
4.045,0.993489
4.05,0.993561
4.055,0.993633
4.06,0.993705
4.065,0.993777
4.07,0.993849
4.075,0.993921
4.08,0.993994
4.085,0.994066
4.09,0.994139
4.095,0.994211
4.1,0.994284
4.105,0.994356
4.11,0.994429
4.115,0.994501
4.12,0.994574
4.125,0.994646
4.13,0.994719
4.135,0.994791
4.14,0.994863
4.145,0.994935
4.15,0.995007
4.155,0.995079
4.16,0.995151
4.165,0.995223
4.17,0.995295
4.175,0.995366
4.18,0.995438
4.185,0.995509
4.19,0.99558
4.195,0.995651
4.2,0.995721
4.205,0.995792
4.21,0.995862
4.215,0.995932
4.22,0.996002
4.225,0.996071
4.23,0.99614
4.235,0.996209
4.24,0.996278
4.245,0.996347
4.25,0.996415
4.255,0.996483
4.26,0.99655
4.265,0.996618
4.27,0.996685
4.275,0.996751
4.28,0.996818
4.285,0.996884
4.29,0.99695
4.295,0.997015
4.3,0.99708
4.305,0.997145
4.31,0.997209
4.315,0.997273
4.32,0.997337
4.325,0.9974
4.33,0.997463
4.335,0.997525
4.34,0.997587
4.345,0.997649
4.35,0.99771
4.355,0.997771
4.36,0.997831
4.365,0.997891
4.37,0.997951
4.375,0.99801
4.38,0.998068
4.385,0.998127
4.39,0.998184
4.395,0.998242
4.4,0.998299
4.405,0.998355
4.41,0.998411
4.415,0.998467
4.42,0.998522
4.425,0.998576
4.43,0.99863
4.435,0.998684
4.44,0.998737
4.445,0.99879
4.45,0.998842
4.455,0.998894
4.46,0.998945
4.465,0.998996
4.47,0.999046
4.475,0.999096
4.48,0.999145
4.485,0.999194
4.49,0.999243
4.495,0.99929
4.5,0.999338
4.505,0.999385
4.51,0.999431
4.515,0.999477
4.52,0.999522
4.525,0.999567
4.53,0.999611
4.535,0.999655
4.54,0.999698
4.545,0.999741
4.55,0.999783
4.555,0.999825
4.56,0.999866
4.565,0.999907
4.57,0.999947
4.575,0.999987
4.58,1.00003
4.585,1.00006
4.59,1.0001
4.595,1.00014
4.6,1.00018
4.605,1.00021
4.61,1.00025
4.615,1.00029
4.62,1.00032
4.625,1.00036
4.63,1.00039
4.635,1.00042
4.64,1.00046
4.645,1.00049
4.65,1.00052
4.655,1.00055
4.66,1.00058
4.665,1.00061
4.67,1.00064
4.675,1.00067
4.68,1.0007
4.685,1.00073
4.69,1.00076
4.695,1.00079
4.7,1.00081
4.705,1.00084
4.71,1.00087
4.715,1.00089
4.72,1.00092
4.725,1.00094
4.73,1.00097
4.735,1.00099
4.74,1.00101
4.745,1.00104
4.75,1.00106
4.755,1.00108
4.76,1.0011
4.765,1.00112
4.77,1.00114
4.775,1.00116
4.78,1.00118
4.785,1.0012
4.79,1.00122
4.795,1.00124
4.8,1.00126
4.805,1.00128
4.81,1.00129
4.815,1.00131
4.82,1.00133
4.825,1.00134
4.83,1.00136
4.835,1.00137
4.84,1.00139
4.845,1.0014
4.85,1.00141
4.855,1.00143
4.86,1.00144
4.865,1.00145
4.87,1.00146
4.875,1.00147
4.88,1.00149
4.885,1.0015
4.89,1.00151
4.895,1.00152
4.9,1.00153
4.905,1.00154
4.91,1.00154
4.915,1.00155
4.92,1.00156
4.925,1.00157
4.93,1.00158
4.935,1.00158
4.94,1.00159
4.945,1.0016
4.95,1.0016
4.955,1.00161
4.96,1.00161
4.965,1.00162
4.97,1.00162
4.975,1.00163
4.98,1.00163
4.985,1.00163
4.99,1.00164
4.995,1.00164
5,1.00164
5.005,1.00165
5.01,1.00165
5.015,1.00165
5.02,1.00165
5.025,1.00165
5.03,1.00165
5.035,1.00165
5.04,1.00165
5.045,1.00165
5.05,1.00165
5.055,1.00165
5.06,1.00165
5.065,1.00165
5.07,1.00165
5.075,1.00165
5.08,1.00165
5.085,1.00165
5.09,1.00164
5.095,1.00164
5.1,1.00164
5.105,1.00164
5.11,1.00163
5.115,1.00163
5.12,1.00162
5.125,1.00162
5.13,1.00162
5.135,1.00161
5.14,1.00161
5.145,1.0016
5.15,1.0016
5.155,1.00159
5.16,1.00159
5.165,1.00158
5.17,1.00158
5.175,1.00157
5.18,1.00156
5.185,1.00156
5.19,1.00155
5.195,1.00154
5.2,1.00154
5.205,1.00153
5.21,1.00152
5.215,1.00152
5.22,1.00151
5.225,1.0015
5.23,1.00149
5.235,1.00149
5.24,1.00148
5.245,1.00147
5.25,1.00146
5.255,1.00145
5.26,1.00144
5.265,1.00144
5.27,1.00143
5.275,1.00142
5.28,1.00141
5.285,1.0014
5.29,1.00139
5.295,1.00138
5.3,1.00137
5.305,1.00136
5.31,1.00135
5.315,1.00134
5.32,1.00133
5.325,1.00132
5.33,1.00131
5.335,1.0013
5.34,1.00129
5.345,1.00128
5.35,1.00127
5.355,1.00126
5.36,1.00125
5.365,1.00124
5.37,1.00123
5.375,1.00122
5.38,1.00121
5.385,1.00119
5.39,1.00118
5.395,1.00117
5.4,1.00116
5.405,1.00115
5.41,1.00114
5.415,1.00113
5.42,1.00112
5.425,1.00111
5.43,1.00109
5.435,1.00108
5.44,1.00107
5.445,1.00106
5.45,1.00105
5.455,1.00104
5.46,1.00102
5.465,1.00101
5.47,1.001
5.475,1.00099
5.48,1.00098
5.485,1.00097
5.49,1.00096
5.495,1.00094
5.5,1.00093
5.505,1.00092
5.51,1.00091
5.515,1.0009
5.52,1.00089
5.525,1.00087
5.53,1.00086
5.535,1.00085
5.54,1.00084
5.545,1.00083
5.55,1.00082
5.555,1.0008
5.56,1.00079
5.565,1.00078
5.57,1.00077
5.575,1.00076
5.58,1.00075
5.585,1.00073
5.59,1.00072
5.595,1.00071
5.6,1.0007
5.605,1.00069
5.61,1.00068
5.615,1.00067
5.62,1.00066
5.625,1.00064
5.63,1.00063
5.635,1.00062
5.64,1.00061
5.645,1.0006
5.65,1.00059
5.655,1.00058
5.66,1.00057
5.665,1.00056
5.67,1.00055
5.675,1.00053
5.68,1.00052
5.685,1.00051
5.69,1.0005
5.695,1.00049
5.7,1.00048
5.705,1.00047
5.71,1.00046
5.715,1.00045
5.72,1.00044
5.725,1.00043
5.73,1.00042
5.735,1.00041
5.74,1.0004
5.745,1.00039
5.75,1.00038
5.755,1.00037
5.76,1.00036
5.765,1.00035
5.77,1.00034
5.775,1.00033
5.78,1.00032
5.785,1.00031
5.79,1.0003
5.795,1.00029
5.8,1.00028
5.805,1.00027
5.81,1.00027
5.815,1.00026
5.82,1.00025
5.825,1.00024
5.83,1.00023
5.835,1.00022
5.84,1.00021
5.845,1.0002
5.85,1.0002
5.855,1.00019
5.86,1.00018
5.865,1.00017
5.87,1.00016
5.875,1.00015
5.88,1.00015
5.885,1.00014
5.89,1.00013
5.895,1.00012
5.9,1.00012
5.905,1.00011
5.91,1.0001
5.915,1.00009
5.92,1.00009
5.925,1.00008
5.93,1.00007
5.935,1.00006
5.94,1.00006
5.945,1.00005
5.95,1.00004
5.955,1.00004
5.96,1.00003
5.965,1.00002
5.97,1.00002
5.975,1.00001
5.98,1
5.985,0.999997
5.99,0.99999
5.995,0.999984
6,0.999978
6.005,0.999972
6.01,0.999966
6.015,0.999961
6.02,0.999955
6.025,0.999949
6.03,0.999944
6.035,0.999938
6.04,0.999933
6.045,0.999927
6.05,0.999922
6.055,0.999917
6.06,0.999912
6.065,0.999907
6.07,0.999902
6.075,0.999897
6.08,0.999892
6.085,0.999888
6.09,0.999883
6.095,0.999878
6.1,0.999874
6.105,0.99987
6.11,0.999865
6.115,0.999861
6.12,0.999857
6.125,0.999853
6.13,0.999849
6.135,0.999845
6.14,0.999841
6.145,0.999837
6.15,0.999834
6.155,0.99983
6.16,0.999827
6.165,0.999823
6.17,0.99982
6.175,0.999816
6.18,0.999813
6.185,0.99981
6.19,0.999807
6.195,0.999804
6.2,0.999801
6.205,0.999798
6.21,0.999795
6.215,0.999793
6.22,0.99979
6.225,0.999787
6.23,0.999785
6.235,0.999782
6.24,0.99978
6.245,0.999778
6.25,0.999775
6.255,0.999773
6.26,0.999771
6.265,0.999769
6.27,0.999767
6.275,0.999765
6.28,0.999763
6.285,0.999761
6.29,0.99976
6.295,0.999758
6.3,0.999756
6.305,0.999755
6.31,0.999753
6.315,0.999752
6.32,0.999751
6.325,0.999749
6.33,0.999748
6.335,0.999747
6.34,0.999746
6.345,0.999745
6.35,0.999744
6.355,0.999743
6.36,0.999742
6.365,0.999741
6.37,0.99974
6.375,0.999739
6.38,0.999739
6.385,0.999738
6.39,0.999737
6.395,0.999737
6.4,0.999736
6.405,0.999736
6.41,0.999735
6.415,0.999735
6.42,0.999735
6.425,0.999735
6.43,0.999734
6.435,0.999734
6.44,0.999734
6.445,0.999734
6.45,0.999734
6.455,0.999734
6.46,0.999734
6.465,0.999734
6.47,0.999734
6.475,0.999735
6.48,0.999735
6.485,0.999735
6.49,0.999735
6.495,0.999736
6.5,0.999736
6.505,0.999737
6.51,0.999737
6.515,0.999738
6.52,0.999738
6.525,0.999739
6.53,0.999739
6.535,0.99974
6.54,0.999741
6.545,0.999741
6.55,0.999742
6.555,0.999743
6.56,0.999744
6.565,0.999745
6.57,0.999746
6.575,0.999746
6.58,0.999747
6.585,0.999748
6.59,0.999749
6.595,0.99975
6.6,0.999752
6.605,0.999753
6.61,0.999754
6.615,0.999755
6.62,0.999756
6.625,0.999757
6.63,0.999759
6.635,0.99976
6.64,0.999761
6.645,0.999762
6.65,0.999764
6.655,0.999765
6.66,0.999766
6.665,0.999768
6.67,0.999769
6.675,0.999771
6.68,0.999772
6.685,0.999773
6.69,0.999775
6.695,0.999776
6.7,0.999778
